A_J/R: Comparison to Pitzer's book, p. 99, can be made.
        Agreement is within 12 pc 

Delta_Cp0: Heat Capacity of Solution per mole of salt (standard states)
           rxn for the ss heat of soln:     NaCl(s) -> Na+(aq) + Cl-(aq)

Delta_Cps: Delta heat Capacity of Solution per mole of salt
          rxn for heat of soln:      n1 H2O(l,pure) + n2 NaCl(s) -> n2 MX(aq) + n1 H2O(l) 
          Delta_Hs = (n1 h_H2O_bar + n2 h_MX_bar - n1 h_H2O_0 - n2 h_MX_0)/n2

phiJ:     phiJ, calculated from the program, is checked
          against analytical formula in J_standalone program.
          (comparison against Eq. 12, Silvester and Pitzer)


            T,          Pres,          Aphi,         A_J/R,     Delta_Cp0,     Delta_Cps,             J,          phiJ,     MolarCp,   MolarCp0
       Kelvin,           bar, sqrt(kg/gmol), sqrt(kg/gmol),   kJ/gmolSalt,   kJ/gmolSalt,   kJ/gmolSoln,   kJ/gmolSalt,       kJ/gmol,    kJ/gmol
273.1500, 1.0132, 0.3767, 4.0857, -0.1590, -0.0365, 0.0111, 0.1225, 0.0634, 0.0523
298.1500, 1.0132, 0.3914, 4.6122, -0.1308, -0.0200, 0.0100, 0.1108, 0.0644, 0.0544
323.1500, 1.0132, 0.4103, 5.5026, -0.1157, -0.0106, 0.0095, 0.1051, 0.0653, 0.0558
348.1500, 1.0132, 0.4333, 6.7255, -0.1138, -0.0087, 0.0095, 0.1051, 0.0657, 0.0562
373.1500, 1.0142, 0.4606, 8.3544, -0.1250, -0.0136, 0.0101, 0.1114, 0.0657, 0.0556
398.1500, 2.3224, 0.4925, 10.5437, -0.1493, -0.0238, 0.0114, 0.1255, 0.0653, 0.0539
423.1500, 4.7616, 0.5295, 13.5812, -0.1868, -0.0365, 0.0136, 0.1503, 0.0650, 0.0514
448.1500, 8.9260, 0.5726, 17.9960, -0.2373, -0.0467, 0.0173, 0.1906, 0.0653, 0.0480
473.1500, 15.5493, 0.6228, 24.8259, -0.3010, -0.0444, 0.0233, 0.2566, 0.0671, 0.0439
498.1500, 25.4972, 0.6820, 36.2734, -0.3778, -0.0087, 0.0335, 0.3692, 0.0727, 0.0392
523.1500, 39.7617, 0.7534, 57.5195, -0.4677, 0.1102, 0.0524, 0.5779, 0.0867, 0.0344
548.1500, 59.4639, 0.8422, 102.5412, -0.5707, 0.4458, 0.0921, 1.0165, 0.1221, 0.0299
573.1500, 85.8790, 0.9593, 217.1283, -0.6867, 1.4360, 0.1924, 2.1227, 0.2200, 0.0276
598.1500, 120.5101, 1.1302, 604.2292, -0.8157, 5.0214, 0.5291, 5.8370, 0.5609, 0.0318
623.1500, 165.2941, 1.4387, 2813.6209, -0.9577, 26.0203, 2.4455, 26.9781, 2.5130, 0.0674
323.1500, 1.0132, 0.4103, 5.5026, -0.1157, -0.0106, 0.0095, 0.1051, 0.0653, 0.0558
Breakdown of Heat Capacity Calculation at 323.15 K, 1atm:
 Species     MoleFrac        Molal          Cp0          partCp     (partCp - Cp0)
  H2O(L)0.8187 0.0000 0.0753 0.0696 -0.0057
  Na+   0.0906 6.1460 0.0284 0.1069 0.0785
  Cl-   0.0906 6.1460 -0.0931 -0.0146 0.0785
 NaCl(s)1.0000               0.0510 0.0510 0.0000
A_J/R: Comparison to Pitzer's book, p. 99, can be made.
        Agreement is within 12 pc 

Delta_Cp0: Heat Capacity of Solution per mole of salt (standard states)
           rxn for the ss heat of soln:     NaCl(s) -> Na+(aq) + Cl-(aq)

Delta_Cps: Delta heat Capacity of Solution per mole of salt
          rxn for heat of soln:      n1 H2O(l,pure) + n2 NaCl(s) -> n2 MX(aq) + n1 H2O(l) 
          Delta_Hs = (n1 h_H2O_bar + n2 h_MX_bar - n1 h_H2O_0 - n2 h_MX_0)/n2

phiJ:     phiJ, calculated from the program, is checked
          against analytical formula in J_standalone program.
          (comparison against Eq. 12, Silvester and Pitzer)


            T,          Pres,          Aphi,         A_J/R,     Delta_Cp0,     Delta_Cps,             J,          phiJ,     MolarCp,   MolarCp0
       Kelvin,           bar, sqrt(kg/gmol), sqrt(kg/gmol),   kJ/gmolSalt,   kJ/gmolSalt,   kJ/gmolSoln,   kJ/gmolSalt,       kJ/gmol,    kJ/gmol
273.1500, 1.0132, 0.3767, 4.0857, -0.1590, -0.0365, 0.0111, 0.1225, 0.0634, 0.0523
298.1500, 1.0132, 0.3914, 4.6122, -0.1308, -0.0200, 0.0100, 0.1108, 0.0644, 0.0544
323.1500, 1.0132, 0.4103, 5.5026, -0.1157, -0.0106, 0.0095, 0.1051, 0.0653, 0.0558
348.1500, 1.0132, 0.4333, 6.7255, -0.1138, -0.0087, 0.0095, 0.1051, 0.0657, 0.0562
373.1500, 1.0142, 0.4606, 8.3544, -0.1250, -0.0136, 0.0101, 0.1114, 0.0657, 0.0556
398.1500, 2.3224, 0.4925, 10.5437, -0.1493, -0.0238, 0.0114, 0.1255, 0.0653, 0.0539
423.1500, 4.7616, 0.5295, 13.5812, -0.1868, -0.0365, 0.0136, 0.1503, 0.0650, 0.0514
448.1500, 8.9260, 0.5726, 17.9960, -0.2373, -0.0467, 0.0173, 0.1906, 0.0653, 0.0480
473.1500, 15.5493, 0.6228, 24.8259, -0.3010, -0.0444, 0.0233, 0.2566, 0.0671, 0.0439
498.1500, 25.4972, 0.6820, 36.2734, -0.3778, -0.0087, 0.0335, 0.3692, 0.0727, 0.0392
523.1500, 39.7617, 0.7534, 57.5195, -0.4677, 0.1102, 0.0524, 0.5779, 0.0867, 0.0344
548.1500, 59.4639, 0.8422, 102.5412, -0.5707, 0.4458, 0.0921, 1.0165, 0.1221, 0.0299
573.1500, 85.8790, 0.9593, 217.1283, -0.6867, 1.4360, 0.1924, 2.1227, 0.2200, 0.0276
598.1500, 120.5101, 1.1302, 604.2292, -0.8157, 5.0214, 0.5291, 5.8370, 0.5609, 0.0318
623.1500, 165.2941, 1.4387, 2813.6209, -0.9577, 26.0203, 2.4455, 26.9781, 2.5130, 0.0674
323.1500, 1.0132, 0.4103, 5.5026, -0.1157, -0.0106, 0.0095, 0.1051, 0.0653, 0.0558
Breakdown of Heat Capacity Calculation at 323.15 K, 1atm:
 Species     MoleFrac        Molal          Cp0          partCp     (partCp - Cp0)
  H2O(L)0.8187 0.0000 0.0753 0.0696 -0.0057
  Na+   0.0906 6.1460 0.0284 0.1069 0.0785
  Cl-   0.0906 6.1460 -0.0931 -0.0146 0.0785
 NaCl(s)1.0000               0.0510 0.0510 0.0000
